 ERROR=   3.3807796104388665E-002
 MAGN. FIELD,  OBSED.,   CAL.                  
     0.010    59.105    57.720
     0.040    49.772    51.562
     0.100    36.248    36.418
     0.300    23.834    22.742
     1.000    19.751    19.848
     3.000    17.673    18.242
     6.000    14.235    15.146
    10.000    11.239    11.713
    15.000     9.427     9.278
    20.000     8.357     8.039
    25.000     7.692     7.362
    35.000     7.063     6.710
    50.000     6.601     6.340
